65.0788
63.0993
61.0982
59.0919
57.0601
55.0792
53.0777
51.0804
49.0714
47.0648
45.0406
43.0714
41.0726
39.0614
37.0636
35.0561
33.0329
31.0166
28.9987
26.9928
24.9845
22.9114
20.9297
18.8788
16.8524
14.9031
12.8803
10.909
8.93262
6.95115
4.92085
2.91268
0.909142
-1.09011
-3.08901
-5.0345
-7.04223
-9.07132
-11.0998
-13.0442
-15.0144
-17.0198
-18.9892
-20.9646
-22.9658
-24.9863
-27.0145
-28.991
-30.9788
-32.9947
-34.9584
-36.9816
-39.0051
-41.0026
-42.9972
-44.9897
-47.0093
-49.0015
-50.9687
-52.9778
-54.9616
-57.021
-59.064
-60.9837
